# spectral number density of the CMB photon field
# -----------------------------------------------
# nu [Hz],dn/de [m-3 eV-1]
1.000000000000000000e+05,1.266171084907810437e+06
1.023292992280753533e+05,1.295663971643091179e+06
1.047128548050898389e+05,1.325843834709153278e+06
1.071519305237604858e+05,1.356726675781350583e+06
1.096478196143182868e+05,1.388328869259150699e+06
1.122018454301960592e+05,1.420667170947874896e+06
1.148153621496879350e+05,1.453758726942636305e+06
1.174897554939525435e+05,1.487621082719214028e+06
1.202264434617408115e+05,1.522272192436676705e+06
1.230268770812376024e+05,1.557730428456682013e+06
1.258925411794161046e+05,1.594014591084494721e+06
1.288249551693127141e+05,1.631143918536908692e+06
1.318256738556399359e+05,1.669138097142329672e+06
1.348962882591644884e+05,1.708017271778454538e+06
1.380384264602875337e+05,1.747802056553048082e+06
1.412537544622743735e+05,1.788513545733514009e+06
1.445439770745916176e+05,1.830173324931027368e+06
1.479108388168195088e+05,1.872803482545181178e+06
1.513561248436194728e+05,1.916426621475185268e+06
1.548816618912466802e+05,1.961065871103858342e+06
1.584893192461097788e+05,2.006744899560744874e+06
1.621810097358913335e+05,2.053487926270860480e+06
1.659586907437542686e+05,2.101319734795730561e+06
1.698243652461724996e+05,2.150265685973513871e+06
1.737800828749354987e+05,2.200351731365192216e+06
1.778279410038900969e+05,2.251604427013938315e+06
1.819700858609960123e+05,2.304050947524977848e+06
1.862087136662842822e+05,2.357719100473377388e+06
1.905460717963221250e+05,2.412637341147441417e+06
1.949844599758017575e+05,2.468834787635483313e+06
1.995262314968850114e+05,2.526341236264019273e+06
2.041737944669498247e+05,2.585187177395524457e+06
2.089296130854006624e+05,2.645403811594144441e+06
2.137962089502197341e+05,2.707023066167958546e+06
2.187761623949515924e+05,2.770077612096508965e+06
2.238721138568301103e+05,2.834600881352624390e+06
2.290867652767732507e+05,2.900627084627667908e+06
2.344228815319879504e+05,2.968191229469662998e+06
2.398832919019445544e+05,3.037329138843866531e+06
2.454708915684983367e+05,3.108077470125647727e+06
2.511886431509530812e+05,3.180473734535741620e+06
2.570395782768812205e+05,3.254556317028171383e+06
2.630267991895327577e+05,3.330364496641393751e+06
2.691534803926859167e+05,3.407938467323443852e+06
2.754228703338106861e+05,3.487319359242127743e+06
2.818382931264391518e+05,3.568549260591560975e+06
2.884031503126540920e+05,3.651671239906590432e+06
2.951209226666317554e+05,3.736729368896970525e+06
3.019951720401945058e+05,3.823768745813343674e+06
3.090295432513515698e+05,3.912835519357464276e+06
3.162277660168301663e+05,4.003976913149310742e+06
3.235936569296201342e+05,4.097241250764051452e+06
3.311311214825826464e+05,4.192677981352145318e+06
3.388441561391937430e+05,4.290337705856169574e+06
3.467368504525224562e+05,4.390272203838257119e+06
3.548133892335658893e+05,4.492534460932355374e+06
3.630780547700913157e+05,4.597178696935873479e+06
3.715352290971621405e+05,4.704260394555611536e+06
3.801893963205504115e+05,4.813836328823189251e+06
3.890451449942693580e+05,4.925964597195579670e+06
3.981071705534855137e+05,5.040704650356715545e+06
4.073802778041005367e+05,5.158117323736451566e+06
4.168693834703227039e+05,5.278264869763634168e+06
4.265795188015794847e+05,5.401210990870362148e+06
4.365158322401522310e+05,5.527020873264904134e+06
4.466835921509488253e+05,5.655761221491220407e+06
4.570881896148601663e+05,5.787500293793360703e+06
4.677351412871828070e+05,5.922307938303517178e+06
4.786300923226223676e+05,6.060255630072874948e+06
4.897788193684295984e+05,6.201416508964954875e+06
5.011872336272550747e+05,6.345865418431429192e+06
5.128613839913469856e+05,6.493678945191070437e+06
5.248074602497540182e+05,6.644935459832769819e+06
5.370317963702335255e+05,6.799715158364236355e+06
5.495408738576045725e+05,6.958100104728286155e+06
5.623413251903282944e+05,7.120174274309370667e+06
5.754399373371354304e+05,7.286023598453318700e+06
5.888436553555667633e+05,7.455736010023910552e+06
6.025595860743346857e+05,7.629401490020447411e+06
6.165950018614581786e+05,7.807112115281003527e+06
6.309573444801684236e+05,7.988962107296627015e+06
6.456542290346297668e+05,8.175047882162383758e+06
6.606934480075694155e+05,8.365468101691721939e+06
6.760829753919541836e+05,8.560323725721182302e+06
6.918309709189079003e+05,8.759718065633298829e+06
7.079457843841083813e+05,8.963756839125864208e+06
7.244359600749594392e+05,9.172548226256789640e+06
7.413102413008857984e+05,9.386202926794106141e+06
7.585775750291510485e+05,9.604834218901569024e+06
7.762471166286577936e+05,9.828558019190898165e+06
7.943282347242464311e+05,1.005749294417262636e+07
8.128305161640628939e+05,1.029176037313787267e+07
8.317637711026334437e+05,1.053148451250459440e+07
8.511380382023375714e+05,1.077679246166230738e+07
8.709635899560403777e+05,1.102781428035010956e+07
8.912509381337038940e+05,1.128468305760384724e+07
9.120108393558666576e+05,1.154753498230882362e+07
9.332543007969466271e+05,1.181650941539550759e+07
9.549925860213900451e+05,1.209174896371643990e+07
9.772372209557631286e+05,1.237339955564354546e+07
9.999999999999508727e+05,1.266161051842586324e+07
1.023292992280703504e+06,1.295653465734861419e+07
1.047128548050847137e+06,1.325832833673571795e+07
1.071519305237552151e+06,1.356715156283842400e+07
1.096478196143128909e+06,1.388316806865425035e+07
1.122018454301905585e+06,1.420654540072089992e+07
1.148153621496823151e+06,1.453745500793132372e+07
1.174897554939467926e+06,1.487607233241685107e+07
1.202264434617349179e+06,1.522257690254664607e+07
1.230268770812315634e+06,1.557715242809261195e+07
1.258925411794099258e+06,1.593998689761032537e+07
1.288249551693063695e+06,1.631127267808737792e+07
1.318256738556334516e+06,1.669120661691207998e+07
1.348962882591578644e+06,1.707999014621648565e+07
1.380384264602807583e+06,1.747782938964891806e+07
1.412537544622674584e+06,1.788493527163264900e+07
1.445439770745845046e+06,1.830152362916856632e+07
1.479108388168122387e+06,1.872781532624105737e+07
1.513561248436120572e+06,1.916403637088758871e+07
1.548816618912390899e+06,1.961041803499413654e+07
1.584893192461020080e+06,2.006719697687985376e+07
1.621810097358833533e+06,2.053461536673576385e+07
1.659586907437461196e+06,2.101292101498414949e+07
1.698243652461641701e+06,2.150236750362633169e+07
1.737800828749269713e+06,2.200321432064854726e+07
1.778279410038813716e+06,2.251572699755717441e+07
1.819700858609870775e+06,2.304017725011589006e+07
1.862087136662751436e+06,2.357684312235932425e+07
1.905460717963127419e+06,2.412600913395978883e+07
1.949844599757921882e+06,2.468796643102455139e+07
1.995262314968752209e+06,2.526301294040393829e+07
2.041737944669398246e+06,2.585145352759169787e+07
2.089296130853904178e+06,2.645360015830133855e+07
2.137962089502092451e+06,2.706977206380386651e+07
2.187761623949408531e+06,2.770029591011460125e+07
2.238721138568190858e+06,2.834550597111835703e+07
2.290867652767620049e+06,2.900574430572487786e+07
2.344228815319764428e+06,2.968136093914815411e+07
2.398832919019327965e+06,3.037271404840553179e+07
2.454708915684862528e+06,3.108017015213493258e+07
2.511886431509407237e+06,3.180410430483044311e+07
2.570395782768685836e+06,3.254490029559907690e+07
2.630267991895198356e+06,3.330295085154417530e+07
2.691534803926726803e+06,3.407865784588246047e+07
2.754228703337971587e+06,3.487243251090561599e+07
2.818382931264253333e+06,3.568469565589826554e+07
2.884031503126399126e+06,3.651587789012828469e+07
2.951209226666172501e+06,3.736641985102705657e+07
3.019951720401796978e+06,3.823677243768042326e+07
3.090295432513364591e+06,3.912739704975388199e+07
3.162277660168146715e+06,4.003876583197846264e+07
3.235936569296042435e+06,4.097136192432634532e+07
3.311311214825663716e+06,4.192567971800880879e+07
3.388441561391770840e+06,4.290222511743172258e+07
3.467368504525054246e+06,4.390151580824711174e+07
3.548133892335484270e+06,4.492408153164256364e+07
3.630780547700735275e+06,4.597046436501349509e+07
3.715352290971438866e+06,4.704121900916662812e+07
3.801893963205317035e+06,4.813691308220643550e+07
3.890451449942502193e+06,4.925812742026016861e+07
3.981071705534659792e+06,5.040545638520023227e+07
4.073802778040805366e+06,5.157950817952624708e+07
4.168693834703022614e+06,5.278090516857390851e+07
4.265795188015584834e+06,5.401028421022033691e+07
4.365158322401308455e+06,5.526829699226041138e+07
4.466835921509268694e+06,5.655561037763194740e+07
4.570881896148377098e+06,5.787290675767307729e+07
4.677351412871598266e+06,5.922088441359697282e+07
4.786300923225988634e+06,6.060025788637644798e+07
4.897788193684055470e+06,6.201175835523227602e+07
5.011872336272304878e+06,6.345613402492666245e+07
5.128613839913218282e+06,6.493415052206489444e+07
5.248074602497282438e+06,6.644659130061563849e+07
5.370317963702071458e+06,6.799425805686327815e+07
5.495408738575776108e+06,6.957797115401156247e+07
5.623413251903007738e+06,7.119857005666297674e+07
5.754399373371072114e+06,7.285691377540250123e+07
5.888436553555377759e+06,7.455388132172110677e+07
6.025595860743051395e+06,7.629037217351908982e+07
6.165950018614280038e+06,7.806730675143344700e+07
6.309573444801375270e+06,7.988562690624320507e+07
6.456542290345981717e+06,8.174629641760693491e+07
6.606934480075369589e+06,8.365030150439800322e+07
6.760829753919210285e+06,8.559865134690500796e+07
6.918309709188739769e+06,8.759237862117330730e+07
7.079457843840735964e+06,8.963254004577028751e+07
7.244359600749239326e+06,9.172021694126071036e+07
7.413102413008494303e+06,9.385651580268928409e+07
7.585775750291137956e+06,9.604256888537031412e+07
7.762471166286197491e+06,9.827953480429406464e+07
7.943282347242074087e+06,1.005685991474658251e+08
8.128305161640230566e+06,1.029109751035005599e+08
8.317637711025926284e+06,1.053079041038030833e+08
8.511380382022958249e+06,1.077606564796731770e+08
8.709635899559976533e+06,1.102705321346810311e+08
8.912509381336601451e+06,1.128388612326668799e+08
9.120108393558219075e+06,1.154670049017275870e+08
9.332543007969008759e+06,1.181563559545600116e+08
9.549925860213432461e+06,1.209083396255408376e+08
9.772372209557151422e+06,1.237244143249302208e+08
9.999999999999018386e+06,1.266060724105968922e+08
1.023292992280653119e+07,1.295548409776691049e+08
1.047128548050795682e+07,1.325722826665280312e+08
1.071519305237499624e+07,1.356599964895681739e+08
1.096478196143075265e+07,1.388196186771587133e+08
1.122018454301850498e+07,1.420528235432507992e+08
1.148153621496766619e+07,1.453613243710868061e+08
1.174897554939410090e+07,1.487468743194738328e+08
1.202264434617290273e+07,1.522112673501011431e+08
1.230268770812255330e+07,1.557563391763855815e+08
1.258925411794037372e+07,1.593839682343444824e+08
1.288249551693000644e+07,1.630960766760058999e+08
1.318256738556269929e+07,1.668946313858759105e+08
1.348962882591512427e+07,1.707816450209982395e+08
1.380384264602739736e+07,1.747591770751504302e+08
1.412537544622605108e+07,1.788293349677341878e+08
1.445439770745774172e+07,1.829942751579326987e+08
1.479108388168049790e+07,1.872562042847163975e+08
1.513561248436046205e+07,1.916173803332961500e+08
1.548816618912314810e+07,1.960801138286339641e+08
1.584893192460942268e+07,2.006467690566370487e+08
1.621810097358754091e+07,2.053197653136732280e+08
1.659586907437379844e+07,2.101015781850627959e+08
1.698243652461558580e+07,2.149947408532152772e+08
1.737800828749184310e+07,2.200018454360945523e+08
1.778279410038726404e+07,2.251255443567137122e+08
1.819700858609781414e+07,2.303685517443735600e+08
1.862087136662660167e+07,2.357336448683784306e+08
1.905460717963033915e+07,2.412236656049773991e+08
1.949844599757825956e+07,2.468415219382961392e+08
1.995262314968654141e+07,2.525901894960452020e+08
2.041737944669297710e+07,2.584727131208026111e+08
2.089296130853801593e+07,2.644922084776928723e+08
2.137962089501987398e+07,2.706518636992998123e+08
2.187761623949301243e+07,2.769549410686691403e+08
2.238721138568081334e+07,2.834047787412801981e+08
2.290867652767507732e+07,2.900047925068799257e+08
2.344228815319649130e+07,2.967584775920997858e+08
2.398832919019210339e+07,3.036694105047906041e+08
2.454708915684742481e+07,3.107412509210346341e+08
2.511886431509284303e+07,3.179777436158190370e+08
2.570395782768559828e+07,3.253827204383682609e+08
2.630267991895069182e+07,3.329601023331654072e+08
2.691534803926594555e+07,3.407139014077101350e+08
2.754228703337836638e+07,3.486482230480857491e+08
2.818382931264114752e+07,3.567672680834314227e+08
2.884031503126257658e+07,3.650753350004436374e+08
2.951209226666027680e+07,3.735768222090513110e+08
3.019951720401648432e+07,3.822762303604382873e+08
3.090295432513212785e+07,3.911781647186129093e+08
3.162277660167991370e+07,4.002873375867514014e+08
3.235936569295884296e+07,4.096085707895658016e+08
3.311311214825501665e+07,4.191467982129826546e+08
3.388441561391604692e+07,4.289070684024401903e+08
3.467368504524884373e+07,4.388945472211442590e+08
3.548133892335309833e+07,4.491145205696558952e+08
3.630780547700557113e+07,4.595723971682077646e+08
3.715352290971256793e+07,4.702737114031829834e+08
3.801893963205130398e+07,4.812241262392220497e+08
3.890451449942310899e+07,4.924294361984516978e+08
3.981071705534464121e+07,5.038955704083695412e+08
4.073802778040605038e+07,5.156285957199435234e+08
4.168693834702818096e+07,5.276347198975314498e+08
4.265795188015376031e+07,5.399202948822492361e+08
4.365158322401093692e+07,5.524918201304646730e+08
4.466835921509049833e+07,5.653559460291167498e+08
4.570881896148153394e+07,5.785194773896173239e+08
4.677351412871368974e+07,5.919893770221048594e+08
4.786300923225754499e+07,6.057727693918884993e+08
4.897788193683815747e+07,6.198769443599359989e+08
5.011872336272058636e+07,6.343093610093175173e+08
5.128613839912966639e+07,6.490776515595439672e+08
5.248074602497024834e+07,6.641896253707979918e+08
5.370317963701807708e+07,6.796532730400851965e+08
5.495408738575506210e+07,6.954767705913857222e+08
5.623413251902731508e+07,7.116684837619284391e+08
5.754399373370789737e+07,7.282369723867563009e+08
5.888436553555088490e+07,7.451909948838012218e+08
6.025595860742755234e+07,7.625395128417315483e+08
6.165950018613976985e+07,7.802916957128891945e+08
6.309573444801065326e+07,7.984569256136771441e+08
6.456542290345665067e+07,8.170448022348123789e+08
6.606934480075045675e+07,8.360651478639168739e+08
6.760829753918878734e+07,8.555280125229599476e+08
6.918309709188400209e+07,8.754436792231324911e+08
7.079457843840387464e+07,8.958226693397834301e+08
7.244359600748883188e+07,9.166757481100956202e+08
7.413102413008131087e+07,9.380139302562586069e+08
7.585775750290764868e+07,9.598484857369306087e+08
7.762471166285815835e+07,9.821909456298552752e+08
7.943282347241683304e+07,1.005053108148552060e+09
8.128305161639830470e+07,1.028447044796074629e+09
8.317637711025518179e+07,1.052385106658869267e+09
8.511380382022540271e+07,1.076879930843860149e+09
8.709635899559549987e+07,1.101944447061926365e+09
8.912509381336164474e+07,1.127591884361020565e+09
9.120108393557772040e+07,1.153835778012244225e+09
9.332543007968549430e+07,1.180689976552244663e+09
9.549925860212963820e+07,1.208168648985401154e+09
9.772372209556673467e+07,1.236286292149309158e+09
9.999999999998527765e+07,1.265057738247167826e+09
1.023292992280602902e+08,1.294498162550729752e+09
1.047128548050744236e+08,1.324623091277553558e+09
1.071519305237447023e+08,1.355448409646396637e+09
1.096478196143021435e+08,1.386990370114623547e+09
1.122018454301795363e+08,1.419265600801620722e+09
1.148153621496710181e+08,1.452291114102267265e+09
1.174897554939352423e+08,1.486084315494603395e+09
1.202264434617231190e+08,1.520663012545917273e+09
1.230268770812194943e+08,1.556045424121546030e+09
1.258925411793975681e+08,1.592250189800799608e+09
1.288249551692937315e+08,1.629296379504472733e+09
1.318256738556205332e+08,1.667203503338491201e+09
1.348962882591446340e+08,1.705991521658402443e+09
1.380384264602672160e+08,1.745680855359384060e+09
1.412537544622535706e+08,1.786292396396666527e+09
1.445439770745703280e+08,1.827847518541263342e+09
1.479108388167977333e+08,1.870368088376042366e+09
1.513561248435972035e+08,1.913876476537276983e+09
1.548816618912238777e+08,1.958395569206857443e+09
1.584893192460864484e+08,2.003948779860508919e+09
1.621810097358674407e+08,2.050560061277409315e+09
1.659586907437298298e+08,2.098253917816735744e+09
1.698243652461475134e+08,2.147055417966750622e+09
1.737800828749099076e+08,2.196990207172123432e+09
1.778279410038639009e+08,2.248084520945359230e+09
1.819700858609692156e+08,2.300365198268206596e+09
1.862087136662568450e+08,2.353859695289115429e+09
1.905460717962940633e+08,2.408596099322858810e+09
1.949844599757730663e+08,2.464603143158583641e+09
1.995262314968556464e+08,2.521910219682628632e+09
2.041737944669197798e+08,2.580547396822600365e+09
2.089296130853698850e+08,2.640545432819225311e+09
2.137962089501882493e+08,2.701935791832743645e+09
2.187761623949193954e+08,2.764750659890563965e+09
2.238721138567971587e+08,2.829022961183127880e+09
2.290867652767395079e+08,2.894786374715002060e+09
2.344228815319534242e+08,2.962075351318308353e+09
2.398832919019092321e+08,3.030925131035755157e+09
2.454708915684621930e+08,3.101371760880629539e+09
2.511886431509160995e+08,3.173452112981192589e+09
2.570395782768433392e+08,3.247203903117110252e+09
2.630267991894940436e+08,3.322665709655556679e+09
2.691534803926462531e+08,3.399876992894844055e+09
2.754228703337701559e+08,3.478878114823475838e+09
2.818382931263976097e+08,3.559710359302663326e+09
2.884031503126115799e+08,3.642415952680428982e+09
2.951209226665883064e+08,3.727038084845577717e+09
3.019951720401500463e+08,3.813620930729855061e+09
3.090295432513061166e+08,3.902209672266798496e+09
3.162277660167835951e+08,3.992850520815795898e+09
3.235936569295725226e+08,4.085590740060104847e+09
3.311311214825338721e+08,4.180478669387499332e+09
3.388441561391438246e+08,4.277563747762526035e+09
3.467368504524713755e+08,4.376896538099253654e+09
3.548133892335135937e+08,4.478528752143630028e+09
3.630780547700378895e+08,4.582513275874558449e+09
3.715352290971074104e+08,4.688904195432981491e+09
3.801893963204944134e+08,4.797756823588216782e+09
3.890451449942120910e+08,4.909127726751049042e+09
3.981071705534269214e+08,5.023074752542939186e+09
4.073802778040405512e+08,5.139657057930999756e+09
4.168693834702613354e+08,5.258935137938227654e+09
4.265795188015166521e+08,5.380970854938786507e+09
4.365158322400879860e+08,5.505827468547936440e+09
4.466835921508830786e+08,5.633569666116457939e+09
4.570881896147928834e+08,5.764263593839317322e+09
4.677351412871139050e+08,5.897976888488400459e+09
4.786300923225519061e+08,6.034778709779215813e+09
4.897788193683574796e+08,6.174739773381339073e+09
5.011872336271812320e+08,6.317932384582571030e+09
5.128613839912714362e+08,6.464430472616511345e+09
5.248074602496768236e+08,6.614309625663578033e+09
5.370317963701543808e+08,6.767647126535074234e+09
5.495408738575236797e+08,6.924521989050218582e+09
5.623413251902455091e+08,7.085014995115731239e+09
5.754399373370506763e+08,7.249208732517699242e+09
5.888436553554800749e+08,7.417187633435169220e+09
6.025595860742459297e+08,7.589038013684962273e+09
6.165950018613674641e+08,7.764848112707064629e+09
6.309573444800754786e+08,7.944708134299654007e+09
6.456542290345346928e+08,8.128710288112920761e+09
6.606934480074721575e+08,8.316948831910406113e+09
6.760829753918546438e+08,8.509520114606616020e+09
6.918309709188060760e+08,8.706522620089187622e+09
7.079457843840041161e+08,8.908057011833936691e+09
7.244359600748528242e+08,9.114226178320495605e+09
7.413102413007766008e+08,9.325135279256332397e+09
7.585775750290392637e+08,9.540891792616201401e+09
7.762471166285436153e+08,9.761605562504119873e+09
7.943282347241294384e+08,9.987388847844198227e+09
8.128305161639432907e+08,1.021835637190652657e+10
8.317637711025109291e+08,1.045462537267366409e+10
8.511380382022122145e+08,1.069631565405279732e+10
8.709635899559122324e+08,1.094354963793824577e+10
8.912509381335726976e+08,1.119645241712815857e+10
9.120108393557324409e+08,1.145515180909878922e+10
